#  lumResponse vers. 1.5b - 04/29/03
#  Display ID: DELL_1900FP_ATR5
#  iLdelay = 1   avgN = 1   ILlimit = 0.50
1  59.1  #ff0000
2  172.0  #00ff00
3  28.6  #0000ff
4  0.228  #000000
5  0.228  #000001
6  0.228  #010000
7  0.228  #010001
8  0.228  #000100
9  0.228  #000101
10  0.229  #010100
11  0.227  #010101
12  0.228  #010102
13  0.228  #020101
14  0.228  #020102
15  0.228  #010201
16  0.228  #010202
17  0.228  #020201
18  0.228  #020202
19  0.229  #020203
20  0.228  #030202
21  0.229  #030203
22  0.232  #020302
23  0.233  #020303
24  0.232  #030302
25  0.233  #030303
26  0.233  #030304
27  0.233  #040303
28  0.233  #040304
29  0.233  #030403
30  0.233  #030404
31  0.233  #040403
32  0.233  #040404
33  0.233  #040405
34  0.233  #050404
35  0.233  #050405
36  0.233  #040504
37  0.233  #040505
38  0.233  #050504
39  0.233  #050505
40  0.233  #050506
41  0.233  #060505
42  0.233  #060506
43  0.235  #050605
44  0.235  #050606
45  0.235  #060605
46  0.235  #060606
47  0.235  #060607
48  0.235  #070606
49  0.235  #070607
50  0.235  #060706
51  0.235  #060707
52  0.235  #070706
53  0.235  #070707
54  0.236  #070708
55  0.235  #080707
56  0.236  #080708
57  0.238  #070807
58  0.238  #070808
59  0.238  #080807
60  0.238  #080808
61  0.238  #080809
62  0.238  #090808
63  0.238  #090809
64  0.238  #080908
65  0.238  #080909
66  0.238  #090908
67  0.238  #090909
68  0.239  #09090a
69  0.238  #0a0909
70  0.239  #0a090a
71  0.241  #090a09
72  0.242  #090a0a
73  0.241  #0a0a09
74  0.242  #0a0a0a
75  0.242  #0a0a0b
76  0.242  #0b0a0a
77  0.242  #0b0a0b
78  0.242  #0a0b0a
79  0.242  #0a0b0b
80  0.242  #0b0b0a
81  0.242  #0b0b0b
82  0.242  #0b0b0c
83  0.244  #0c0b0b
84  0.244  #0c0b0c
85  0.245  #0b0c0b
86  0.246  #0b0c0c
87  0.247  #0c0c0b
88  0.248  #0c0c0c
89  0.248  #0c0c0d
90  0.248  #0d0c0c
91  0.248  #0d0c0d
92  0.248  #0c0d0c
93  0.248  #0c0d0d
94  0.248  #0d0d0c
95  0.248  #0d0d0d
96  0.249  #0d0d0e
97  0.248  #0e0d0d
98  0.249  #0e0d0e
99  0.251  #0d0e0d
100  0.253  #0d0e0e
101  0.252  #0e0e0d
102  0.253  #0e0e0e
103  0.253  #0e0e0f
104  0.254  #0f0e0e
105  0.254  #0f0e0f
106  0.253  #0e0f0e
107  0.253  #0e0f0f
108  0.253  #0f0f0e
109  0.253  #0f0f0f
110  0.255  #0f0f10
111  0.254  #100f0f
112  0.256  #100f10
113  0.258  #0f100f
114  0.258  #0f1010
115  0.26  #10100f
116  0.259  #101010
117  0.26  #101011
118  0.258  #111010
119  0.26  #111011
120  0.26  #101110
121  0.26  #101111
122  0.26  #111110
123  0.26  #111111
124  0.261  #111112
125  0.261  #121111
126  0.263  #121112
127  0.266  #111211
128  0.267  #111212
129  0.267  #121211
130  0.269  #121212
131  0.269  #121213
132  0.269  #131212
133  0.269  #131213
134  0.269  #121312
135  0.269  #121313
136  0.269  #131312
137  0.269  #131313
138  0.27  #131314
139  0.27  #141313
140  0.271  #141314
141  0.275  #131413
142  0.277  #131414
143  0.277  #141413
144  0.278  #141414
145  0.28  #141415
146  0.28  #151414
147  0.281  #151415
148  0.286  #141514
149  0.287  #141515
150  0.287  #151514
151  0.289  #151515
152  0.289  #151516
153  0.289  #161515
154  0.289  #161516
155  0.289  #151615
156  0.289  #151616
157  0.289  #161615
158  0.289  #161616
159  0.291  #161617
160  0.291  #171616
161  0.293  #171617
162  0.298  #161716
163  0.3  #161717
164  0.3  #171716
165  0.302  #171717
166  0.304  #171718
167  0.304  #181717
168  0.306  #181718
169  0.312  #171817
170  0.314  #171818
171  0.314  #181817
172  0.316  #181818
173  0.317  #181819
174  0.316  #191818
175  0.317  #191819
176  0.316  #181918
177  0.317  #181919
178  0.316  #191918
179  0.316  #191919
180  0.319  #19191a
181  0.319  #1a1919
182  0.322  #1a191a
183  0.328  #191a19
184  0.33  #191a1a
185  0.331  #1a1a19
186  0.333  #1a1a1a
187  0.333  #1a1a1b
188  0.333  #1b1a1a
189  0.333  #1b1a1b
190  0.333  #1a1b1a
191  0.333  #1a1b1b
192  0.333  #1b1b1a
193  0.333  #1b1b1b
194  0.336  #1b1b1c
195  0.337  #1c1b1b
196  0.339  #1c1b1c
197  0.346  #1b1c1b
198  0.348  #1b1c1c
199  0.35  #1c1c1b
200  0.352  #1c1c1c
201  0.354  #1c1c1d
202  0.356  #1d1c1c
203  0.358  #1d1c1d
204  0.366  #1c1d1c
205  0.368  #1c1d1d
206  0.37  #1d1d1c
207  0.372  #1d1d1d
208  0.372  #1d1d1e
209  0.372  #1e1d1d
210  0.372  #1e1d1e
211  0.372  #1d1e1d
212  0.372  #1d1e1e
213  0.372  #1e1e1d
214  0.372  #1e1e1e
215  0.376  #1e1e1f
216  0.377  #1f1e1e
217  0.38  #1f1e1f
218  0.388  #1e1f1e
219  0.391  #1e1f1f
220  0.392  #1f1f1e
221  0.395  #1f1f1f
222  0.399  #1f1f20
223  0.4  #201f1f
224  0.403  #201f20
225  0.413  #1f201f
226  0.416  #1f2020
227  0.417  #20201f
228  0.421  #202020
229  0.425  #202021
230  0.426  #212020
231  0.43  #212021
232  0.44  #202120
233  0.444  #202121
234  0.445  #212120
235  0.449  #212121
236  0.449  #212122
237  0.449  #222121
238  0.449  #222122
239  0.449  #212221
240  0.449  #212222
241  0.449  #222221
242  0.449  #222222
243  0.453  #222223
244  0.455  #232222
245  0.459  #232223
246  0.47  #222322
247  0.474  #222323
248  0.475  #232322
249  0.48  #232323
250  0.484  #232324
251  0.486  #242323
252  0.49  #242324
253  0.503  #232423
254  0.507  #232424
255  0.509  #242423
256  0.514  #242424
257  0.514  #242425
258  0.514  #252424
259  0.514  #252425
260  0.514  #242524
261  0.514  #242525
262  0.514  #252524
263  0.514  #252525
264  0.519  #252526
265  0.522  #262525
266  0.527  #262526
267  0.538  #252625
268  0.543  #252626
269  0.547  #262625
270  0.552  #262626
271  0.556  #262627
272  0.56  #272626
273  0.564  #272627
274  0.58  #262726
275  0.582  #262727
276  0.586  #272726
277  0.591  #272727
278  0.597  #272728
279  0.6  #282727
280  0.606  #282728
281  0.621  #272827
282  0.627  #272828
283  0.629  #282827
284  0.635  #282828
285  0.635  #282829
286  0.635  #292828
287  0.635  #292829
288  0.635  #282928
289  0.635  #282929
290  0.635  #292928
291  0.635  #292929
292  0.642  #29292a
293  0.645  #2a2929
294  0.651  #2a292a
295  0.668  #292a29
296  0.674  #292a2a
297  0.677  #2a2a29
298  0.684  #2a2a2a
299  0.692  #2a2a2b
300  0.694  #2b2a2a
301  0.701  #2b2a2b
302  0.72  #2a2b2a
303  0.727  #2a2b2b
304  0.73  #2b2b2a
305  0.737  #2b2b2b
306  0.745  #2b2b2c
307  0.748  #2c2b2b
308  0.756  #2c2b2c
309  0.777  #2b2c2b
310  0.785  #2b2c2c
311  0.788  #2c2c2b
312  0.797  #2c2c2c
313  0.797  #2c2c2d
314  0.797  #2d2c2c
315  0.797  #2d2c2d
316  0.797  #2c2d2c
317  0.797  #2c2d2d
318  0.797  #2d2d2c
319  0.797  #2d2d2d
320  0.806  #2d2d2e
321  0.809  #2e2d2d
322  0.818  #2e2d2e
323  0.842  #2d2e2d
324  0.851  #2d2e2e
325  0.855  #2e2e2d
326  0.863  #2e2e2e
327  0.873  #2e2e2f
328  0.88  #2f2e2e
329  0.89  #2f2e2f
330  0.91  #2e2f2e
331  0.92  #2e2f2f
332  0.928  #2f2f2e
333  0.938  #2f2f2f
334  0.945  #2f2f30
335  0.953  #302f2f
336  0.961  #302f30
337  0.99  #2f302f
338  0.998  #2f3030
339  1.006  #30302f
340  1.014  #303030
341  1.013  #303031
342  1.014  #313030
343  1.014  #313031
344  1.014  #303130
345  1.014  #303131
346  1.014  #313130
347  1.014  #313131
348  1.026  #313132
349  1.032  #323131
350  1.044  #323132
351  1.074  #313231
352  1.085  #313232
353  1.091  #323231
354  1.102  #323232
355  1.113  #323233
356  1.121  #333232
357  1.131  #333233
358  1.166  #323332
359  1.177  #323333
360  1.185  #333332
361  1.196  #333333
362  1.207  #333334
363  1.216  #343333
364  1.228  #343334
365  1.252  #333433
366  1.264  #333434
367  1.273  #343433
368  1.284  #343434
369  1.296  #343435
370  1.307  #353434
371  1.318  #353435
372  1.349  #343534
373  1.361  #343535
374  1.372  #353534
375  1.384  #353535
376  1.384  #353536
377  1.384  #363535
378  1.384  #363536
379  1.384  #353635
380  1.384  #353636
381  1.385  #363635
382  1.384  #363636
383  1.397  #363637
384  1.414  #373636
385  1.426  #373637
386  1.45  #363736
387  1.462  #363737
388  1.479  #373736
389  1.492  #373737
390  1.501  #373738
391  1.514  #383737
392  1.523  #383738
393  1.562  #373837
394  1.572  #373838
395  1.58  #383837
396  1.59  #383838
397  1.6  #383839
398  1.61  #393838
399  1.63  #393839
400  1.67  #383938
401  1.68  #383939
402  1.69  #393938
403  1.7  #393939
404  1.72  #39393a
405  1.73  #3a3939
406  1.74  #3a393a
407  1.78  #393a39
408  1.8  #393a3a
409  1.81  #3a3a39
410  1.82  #3a3a3a
411  1.82  #3a3a3b
412  1.82  #3b3a3a
413  1.82  #3b3a3b
414  1.82  #3a3b3a
415  1.83  #3a3b3b
416  1.82  #3b3b3a
417  1.82  #3b3b3b
418  1.84  #3b3b3c
419  1.85  #3c3b3b
420  1.87  #3c3b3c
421  1.91  #3b3c3b
422  1.93  #3b3c3c
423  1.94  #3c3c3b
424  1.95  #3c3c3c
425  1.97  #3c3c3d
426  1.98  #3d3c3c
427  2.0  #3d3c3d
428  2.04  #3c3d3c
429  2.06  #3c3d3d
430  2.07  #3d3d3c
431  2.09  #3d3d3d
432  2.11  #3d3d3e
433  2.12  #3e3d3d
434  2.14  #3e3d3e
435  2.19  #3d3e3d
436  2.2  #3d3e3e
437  2.22  #3e3e3d
438  2.23  #3e3e3e
439  2.25  #3e3e3f
440  2.27  #3f3e3e
441  2.29  #3f3e3f
442  2.34  #3e3f3e
443  2.36  #3e3f3f
444  2.38  #3f3f3e
445  2.4  #3f3f3f
446  2.41  #3f3f40
447  2.43  #403f3f
448  2.45  #403f40
449  2.51  #3f403f
450  2.52  #3f4040
451  2.54  #40403f
452  2.56  #404040
453  2.58  #404041
454  2.6  #414040
455  2.62  #414041
456  2.68  #404140
457  2.7  #404141
458  2.72  #414140
459  2.74  #414141
460  2.74  #414142
461  2.74  #424141
462  2.74  #424142
463  2.74  #414241
464  2.74  #414242
465  2.74  #424241
466  2.74  #424242
467  2.76  #424243
468  2.78  #434242
469  2.8  #434243
470  2.87  #424342
471  2.89  #424343
472  2.9  #434342
473  2.93  #434343
474  2.95  #434344
475  2.97  #444343
476  3.0  #444344
477  3.06  #434443
478  3.09  #434444
479  3.1  #444443
480  3.13  #444444
481  3.15  #444445
482  3.17  #454444
483  3.2  #454445
484  3.27  #444544
485  3.29  #444545
486  3.31  #454544
487  3.34  #454545
488  3.36  #454546
489  3.38  #464545
490  3.41  #464546
491  3.48  #454645
492  3.51  #454646
493  3.53  #464645
494  3.56  #464646
495  3.58  #464647
496  3.62  #474646
497  3.65  #474647
498  3.71  #464746
499  3.74  #464747
500  3.77  #474746
501  3.8  #474747
502  3.82  #474748
503  3.85  #484747
504  3.88  #484748
505  3.96  #474847
506  3.98  #474848
507  4.01  #484847
508  4.03  #484848
509  4.06  #484849
510  4.09  #494848
511  4.12  #494849
512  4.2  #484948
513  4.22  #484949
514  4.25  #494948
515  4.28  #494949
516  4.28  #49494a
517  4.28  #4a4949
518  4.28  #4a494a
519  4.28  #494a49
520  4.28  #494a4a
521  4.28  #4a4a49
522  4.28  #4a4a4a
523  4.32  #4a4a4b
524  4.34  #4b4a4a
525  4.37  #4b4a4b
526  4.46  #4a4b4a
527  4.49  #4a4b4b
528  4.52  #4b4b4a
529  4.55  #4b4b4b
530  4.58  #4b4b4c
531  4.61  #4c4b4b
532  4.64  #4c4b4c
533  4.73  #4b4c4b
534  4.76  #4b4c4c
535  4.78  #4c4c4b
536  4.82  #4c4c4c
537  4.85  #4c4c4d
538  4.88  #4d4c4c
539  4.91  #4d4c4d
540  5.0  #4c4d4c
541  5.03  #4c4d4d
542  5.06  #4d4d4c
543  5.09  #4d4d4d
544  5.13  #4d4d4e
545  5.17  #4e4d4d
546  5.21  #4e4d4e
547  5.28  #4d4e4d
548  5.32  #4d4e4e
549  5.36  #4e4e4d
550  5.4  #4e4e4e
551  5.42  #4e4e4f
552  5.46  #4f4e4e
553  5.49  #4f4e4f
554  5.59  #4e4f4e
555  5.62  #4e4f4f
556  5.65  #4f4f4e
557  5.68  #4f4f4f
558  5.72  #4f4f50
559  5.75  #504f4f
560  5.79  #504f50
561  5.88  #4f504f
562  5.92  #4f5050
563  5.95  #50504f
564  5.98  #505050
565  6.02  #505051
566  6.05  #515050
567  6.09  #515051
568  6.2  #505150
569  6.24  #505151
570  6.28  #515150
571  6.32  #515151
572  6.36  #515152
573  6.39  #525151
574  6.43  #525152
575  6.53  #515251
576  6.57  #515252
577  6.6  #525251
578  6.64  #525252
579  6.68  #525253
580  6.72  #535252
581  6.76  #535253
582  6.87  #525352
583  6.91  #525353
584  6.95  #535352
585  6.99  #535353
586  7.03  #535354
587  7.06  #545353
588  7.11  #545354
589  7.22  #535453
590  7.26  #535454
591  7.3  #545453
592  7.34  #545454
593  7.34  #545455
594  7.34  #555454
595  7.34  #555455
596  7.34  #545554
597  7.34  #545555
598  7.35  #555554
599  7.35  #555555
600  7.39  #555556
601  7.45  #565555
602  7.49  #565556
603  7.58  #555655
604  7.63  #555656
605  7.68  #565655
606  7.73  #565656
607  7.76  #565657
608  7.81  #575656
609  7.84  #575657
610  7.96  #565756
611  7.99  #565757
612  8.04  #575756
613  8.08  #575757
614  8.12  #575758
615  8.16  #585757
616  8.2  #585758
617  8.33  #575857
618  8.38  #575858
619  8.42  #585857
620  8.46  #585858
621  8.51  #585859
622  8.54  #595858
623  8.59  #595859
624  8.68  #585958
625  8.73  #585959
626  8.77  #595958
627  8.81  #595959
628  8.86  #59595a
629  8.9  #5a5959
630  8.95  #5a595a
631  9.05  #595a59
632  9.1  #595a5a
633  9.14  #5a5a59
634  9.19  #5a5a5a
635  9.23  #5a5a5b
636  9.27  #5b5a5a
637  9.31  #5b5a5b
638  9.43  #5a5b5a
639  9.47  #5a5b5b
640  9.51  #5b5b5a
641  9.55  #5b5b5b
642  9.6  #5b5b5c
643  9.64  #5c5b5b
644  9.68  #5c5b5c
645  9.81  #5b5c5b
646  9.85  #5b5c5c
647  9.89  #5c5c5b
648  9.94  #5c5c5c
649  9.98  #5c5c5d
650  10.04  #5d5c5c
651  10.09  #5d5c5d
652  10.19  #5c5d5c
653  10.23  #5c5d5d
654  10.3  #5d5d5c
655  10.34  #5d5d5d
656  10.38  #5d5d5e
657  10.43  #5e5d5d
658  10.47  #5e5d5e
659  10.62  #5d5e5d
660  10.65  #5d5e5e
661  10.71  #5e5e5d
662  10.75  #5e5e5e
663  10.8  #5e5e5f
664  10.84  #5f5e5e
665  10.89  #5f5e5f
666  11.01  #5e5f5e
667  11.06  #5e5f5f
668  11.1  #5f5f5e
669  11.15  #5f5f5f
670  11.2  #5f5f60
671  11.25  #605f5f
672  11.3  #605f60
673  11.42  #5f605f
674  11.47  #5f6060
675  11.52  #60605f
676  11.57  #606060
677  11.62  #606061
678  11.66  #616060
679  11.72  #616061
680  11.85  #606160
681  11.9  #606161
682  11.94  #616160
683  11.99  #616161
684  12.04  #616162
685  12.09  #626161
686  12.14  #626162
687  12.28  #616261
688  12.33  #616262
689  12.38  #626261
690  12.43  #626262
691  12.48  #626263
692  12.55  #636262
693  12.6  #636263
694  12.7  #626362
695  12.75  #626363
696  12.82  #636362
697  12.87  #636363
698  12.91  #636364
699  12.97  #646363
700  13.01  #646364
701  13.16  #636463
702  13.2  #636464
703  13.26  #646463
704  13.3  #646464
705  13.35  #646465
706  13.4  #656464
707  13.45  #656465
708  13.58  #646564
709  13.63  #646565
710  13.68  #656564
711  13.73  #656565
712  13.78  #656566
713  13.83  #666565
714  13.88  #666566
715  14.02  #656665
716  14.07  #656666
717  14.12  #666665
718  14.17  #666666
719  14.22  #666667
720  14.27  #676666
721  14.32  #676667
722  14.46  #666766
723  14.51  #666767
724  14.57  #676766
725  14.62  #676767
726  14.67  #676768
727  14.72  #686767
728  14.77  #686768
729  14.92  #676867
730  14.98  #676868
731  15.02  #686867
732  15.08  #686868
733  15.13  #686869
734  15.18  #696868
735  15.24  #696869
736  15.37  #686968
737  15.43  #686969
738  15.48  #696968
739  15.54  #696969
740  15.59  #69696a
741  15.67  #6a6969
742  15.72  #6a696a
743  15.8  #696a69
744  15.9  #696a6a
745  15.9  #6a6a69
746  16.0  #6a6a6a
747  16.0  #6a6a6b
748  16.1  #6b6a6a
749  16.1  #6b6a6b
750  16.3  #6a6b6a
751  16.3  #6a6b6b
752  16.4  #6b6b6a
753  16.5  #6b6b6b
754  16.5  #6b6b6c
755  16.6  #6c6b6b
756  16.6  #6c6b6c
757  16.8  #6b6c6b
758  16.8  #6b6c6c
759  16.9  #6c6c6b
760  16.9  #6c6c6c
761  17.0  #6c6c6d
762  17.0  #6d6c6c
763  17.1  #6d6c6d
764  17.3  #6c6d6c
765  17.3  #6c6d6d
766  17.4  #6d6d6c
767  17.4  #6d6d6d
768  17.5  #6d6d6e
769  17.5  #6e6d6d
770  17.6  #6e6d6e
771  17.8  #6d6e6d
772  17.8  #6d6e6e
773  17.9  #6e6e6d
774  18.0  #6e6e6e
775  18.0  #6e6e6f
776  18.1  #6f6e6e
777  18.1  #6f6e6f
778  18.3  #6e6f6e
779  18.3  #6e6f6f
780  18.4  #6f6f6e
781  18.4  #6f6f6f
782  18.5  #6f6f70
783  18.6  #706f6f
784  18.6  #706f70
785  18.8  #6f706f
786  18.9  #6f7070
787  18.9  #70706f
788  19.0  #707070
789  19.0  #707071
790  19.1  #717070
791  19.2  #717071
792  19.3  #707170
793  19.4  #707171
794  19.5  #717170
795  19.5  #717171
796  19.6  #717172
797  19.6  #727171
798  19.7  #727172
799  19.9  #717271
800  19.9  #717272
801  20.0  #727271
802  20.0  #727272
803  20.1  #727273
804  20.2  #737272
805  20.2  #737273
806  20.4  #727372
807  20.5  #727373
808  20.5  #737372
809  20.6  #737373
810  20.6  #737374
811  20.7  #747373
812  20.8  #747374
813  20.9  #737473
814  21.0  #737474
815  21.1  #747473
816  21.1  #747474
817  21.2  #747475
818  21.3  #757474
819  21.3  #757475
820  21.5  #747574
821  21.6  #747575
822  21.6  #757574
823  21.7  #757575
824  21.7  #757576
825  21.8  #767575
826  21.9  #767576
827  22.1  #757675
828  22.1  #757676
829  22.2  #767675
830  22.2  #767676
831  22.3  #767677
832  22.4  #777676
833  22.5  #777677
834  22.6  #767776
835  22.7  #767777
836  22.8  #777776
837  22.9  #777777
838  22.9  #777778
839  23.0  #787777
840  23.0  #787778
841  23.2  #777877
842  23.3  #777878
843  23.4  #787877
844  23.4  #787878
845  23.5  #787879
846  23.5  #797878
847  23.6  #797879
848  23.8  #787978
849  23.9  #787979
850  23.8  #797978
851  23.8  #797979
852  23.9  #79797a
853  24.0  #7a7979
854  24.0  #7a797a
855  24.2  #797a79
856  24.3  #797a7a
857  24.4  #7a7a79
858  24.4  #7a7a7a
859  24.5  #7a7a7b
860  24.6  #7b7a7a
861  24.7  #7b7a7b
862  24.8  #7a7b7a
863  24.9  #7a7b7b
864  25.0  #7b7b7a
865  25.1  #7b7b7b
866  25.1  #7b7b7c
867  25.2  #7c7b7b
868  25.3  #7c7b7c
869  25.5  #7b7c7b
870  25.6  #7b7c7c
871  25.6  #7c7c7b
872  25.7  #7c7c7c
873  25.8  #7c7c7d
874  25.9  #7d7c7c
875  25.9  #7d7c7d
876  26.1  #7c7d7c
877  26.2  #7c7d7d
878  26.3  #7d7d7c
879  26.4  #7d7d7d
880  26.4  #7d7d7e
881  26.5  #7e7d7d
882  26.6  #7e7d7e
883  26.8  #7d7e7d
884  26.8  #7d7e7e
885  26.9  #7e7e7d
886  27.0  #7e7e7e
887  27.1  #7e7e7f
888  27.2  #7f7e7e
889  27.2  #7f7e7f
890  27.4  #7e7f7e
891  27.5  #7e7f7f
892  27.6  #7f7f7e
893  27.7  #7f7f7f
894  27.7  #7f7f80
895  27.8  #807f7f
896  27.9  #807f80
897  28.1  #7f807f
898  28.2  #7f8080
899  28.2  #80807f
900  28.3  #808080
901  28.4  #808081
902  28.5  #818080
903  28.6  #818081
904  28.7  #808180
905  28.8  #808181
906  28.9  #818180
907  29.0  #818181
908  29.0  #818182
909  29.2  #828181
910  29.2  #828182
911  29.4  #818281
912  29.5  #818282
913  29.6  #828281
914  29.7  #828282
915  29.9  #828283
916  30.0  #838282
917  30.2  #838283
918  30.6  #828382
919  30.7  #828383
920  30.9  #838382
921  31.0  #838383
922  31.1  #838384
923  31.2  #848383
924  31.3  #848384
925  31.5  #838483
926  31.6  #838484
927  31.7  #848483
928  31.7  #848484
929  31.8  #848485
930  31.9  #858484
931  32.0  #858485
932  32.2  #848584
933  32.3  #848585
934  32.4  #858584
935  32.4  #858585
936  32.5  #858586
937  32.6  #868585
938  32.7  #868586
939  32.9  #858685
940  33.0  #858686
941  33.1  #868685
942  33.1  #868686
943  33.2  #868687
944  33.3  #878686
945  33.4  #878687
946  33.6  #868786
947  33.7  #868787
948  33.8  #878786
949  33.9  #878787
950  34.0  #878788
951  34.0  #888787
952  34.1  #888788
953  34.3  #878887
954  34.4  #878888
955  34.5  #888887
956  34.6  #888888
957  34.7  #888889
958  34.8  #898888
959  34.8  #898889
960  35.0  #888988
961  35.1  #888989
962  35.2  #898988
963  35.3  #898989
964  35.4  #89898a
965  35.5  #8a8989
966  35.6  #8a898a
967  35.8  #898a89
968  35.9  #898a8a
969  36.0  #8a8a89
970  36.1  #8a8a8a
971  36.2  #8a8a8b
972  36.3  #8b8a8a
973  36.4  #8b8a8b
974  36.6  #8a8b8a
975  36.7  #8a8b8b
976  36.8  #8b8b8a
977  36.9  #8b8b8b
978  37.0  #8b8b8c
979  37.1  #8c8b8b
980  37.1  #8c8b8c
981  37.4  #8b8c8b
982  37.5  #8b8c8c
983  37.6  #8c8c8b
984  37.7  #8c8c8c
985  37.7  #8c8c8d
986  37.8  #8d8c8c
987  37.9  #8d8c8d
988  38.2  #8c8d8c
989  38.3  #8c8d8d
990  38.3  #8d8d8c
991  38.5  #8d8d8d
992  38.6  #8d8d8e
993  38.7  #8e8d8d
994  38.7  #8e8d8e
995  39.0  #8d8e8d
996  39.1  #8d8e8e
997  39.1  #8e8e8d
998  39.2  #8e8e8e
999  39.4  #8e8e8f
1000  39.6  #8f8e8e
1001  39.8  #8f8e8f
1002  40.3  #8e8f8e
1003  40.5  #8e8f8f
1004  40.7  #8f8f8e
1005  40.8  #8f8f8f
1006  40.9  #8f8f90
1007  41.1  #908f8f
1008  41.2  #908f90
1009  41.4  #8f908f
1010  41.5  #8f9090
1011  41.6  #90908f
1012  41.7  #909090
1013  41.8  #909091
1014  41.9  #919090
1015  42.0  #919091
1016  42.2  #909190
1017  42.3  #909191
1018  42.5  #919190
1019  42.5  #919191
1020  42.6  #919192
1021  42.7  #929191
1022  42.8  #929192
1023  43.1  #919291
1024  43.2  #919292
1025  43.3  #929291
1026  43.4  #929292
1027  43.5  #929293
1028  43.6  #939292
1029  43.7  #939293
1030  43.9  #929392
1031  44.1  #929393
1032  44.1  #939392
1033  44.2  #939393
1034  44.4  #939394
1035  44.5  #949393
1036  44.5  #949394
1037  44.8  #939493
1038  44.9  #939494
1039  45.0  #949493
1040  45.1  #949494
1041  45.2  #949495
1042  45.3  #959494
1043  45.4  #959495
1044  45.7  #949594
1045  45.8  #949595
1046  45.9  #959594
1047  46.0  #959595
1048  46.1  #959596
1049  46.2  #969595
1050  46.3  #969596
1051  46.6  #959695
1052  46.7  #959696
1053  46.8  #969695
1054  46.9  #969696
1055  47.0  #969697
1056  47.1  #979696
1057  47.2  #979697
1058  47.5  #969796
1059  47.6  #969797
1060  47.7  #979796
1061  47.8  #979797
1062  47.9  #979798
1063  48.0  #989797
1064  48.1  #989798
1065  48.4  #979897
1066  48.5  #979898
1067  48.7  #989897
1068  48.7  #989898
1069  48.9  #989899
1070  49.1  #999898
1071  49.4  #999899
1072  49.9  #989998
1073  50.2  #989999
1074  50.4  #999998
1075  50.6  #999999
1076  50.7  #99999a
1077  50.8  #9a9999
1078  50.9  #9a999a
1079  51.2  #999a99
1080  51.2  #999a9a
1081  51.3  #9a9a99
1082  51.3  #9a9a9a
1083  51.3  #9a9a9b
1084  51.8  #9b9a9a
1085  51.9  #9b9a9b
1086  52.2  #9a9b9a
1087  52.3  #9a9b9b
1088  52.4  #9b9b9a
1089  52.6  #9b9b9b
1090  52.7  #9b9b9c
1091  52.9  #9c9b9b
1092  53.0  #9c9b9c
1093  53.2  #9b9c9b
1094  53.3  #9b9c9c
1095  53.5  #9c9c9b
1096  53.6  #9c9c9c
1097  53.7  #9c9c9d
1098  53.8  #9d9c9c
1099  53.9  #9d9c9d
1100  54.3  #9c9d9c
1101  54.4  #9c9d9d
1102  54.5  #9d9d9c
1103  54.6  #9d9d9d
1104  54.7  #9d9d9e
1105  54.8  #9e9d9d
1106  54.9  #9e9d9e
1107  55.2  #9d9e9d
1108  55.3  #9d9e9e
1109  55.4  #9e9e9d
1110  55.6  #9e9e9e
1111  55.7  #9e9e9f
1112  55.8  #9f9e9e
1113  55.9  #9f9e9f
1114  56.2  #9e9f9e
1115  56.4  #9e9f9f
1116  56.5  #9f9f9e
1117  56.6  #9f9f9f
1118  56.7  #9f9fa0
1119  56.8  #a09f9f
1120  57.0  #a09fa0
1121  57.3  #9fa09f
1122  57.4  #9fa0a0
1123  57.5  #a0a09f
1124  57.7  #a0a0a0
1125  57.9  #a0a0a1
1126  58.2  #a1a0a0
1127  58.4  #a1a0a1
1128  59.0  #a0a1a0
1129  59.3  #a0a1a1
1130  59.5  #a1a1a0
1131  59.8  #a1a1a1
1132  59.9  #a1a1a2
1133  60.0  #a2a1a1
1134  60.2  #a2a1a2
1135  60.5  #a1a2a1
1136  60.6  #a1a2a2
1137  60.8  #a2a2a1
1138  60.9  #a2a2a2
1139  61.0  #a2a2a3
1140  61.1  #a3a2a2
1141  61.2  #a3a2a3
1142  61.6  #a2a3a2
1143  61.7  #a2a3a3
1144  61.8  #a3a3a2
1145  61.9  #a3a3a3
1146  62.0  #a3a3a4
1147  62.2  #a4a3a3
1148  62.3  #a4a3a4
1149  62.6  #a3a4a3
1150  62.7  #a3a4a4
1151  62.9  #a4a4a3
1152  63.0  #a4a4a4
1153  63.1  #a4a4a5
1154  63.2  #a5a4a4
1155  63.3  #a5a4a5
1156  63.7  #a4a5a4
1157  63.8  #a4a5a5
1158  63.9  #a5a5a4
1159  64.1  #a5a5a5
1160  64.2  #a5a5a6
1161  64.3  #a6a5a5
1162  64.4  #a6a5a6
1163  64.8  #a5a6a5
1164  64.9  #a5a6a6
1165  65.1  #a6a6a5
1166  65.2  #a6a6a6
1167  65.3  #a6a6a7
1168  65.4  #a7a6a6
1169  65.5  #a7a6a7
1170  65.9  #a6a7a6
1171  66.0  #a6a7a7
1172  66.1  #a7a7a6
1173  66.3  #a7a7a7
1174  66.5  #a7a7a8
1175  66.8  #a8a7a7
1176  67.1  #a8a7a8
1177  67.7  #a7a8a7
1178  68.0  #a7a8a8
1179  68.3  #a8a8a7
1180  68.6  #a8a8a8
1181  68.7  #a8a8a9
1182  68.8  #a9a8a8
1183  69.0  #a9a8a9
1184  69.4  #a8a9a8
1185  69.5  #a8a9a9
1186  69.6  #a9a9a8
1187  69.7  #a9a9a9
1188  69.9  #a9a9aa
1189  70.0  #aaa9a9
1190  70.1  #aaa9aa
1191  70.5  #a9aaa9
1192  70.6  #a9aaaa
1193  70.7  #aaaaa9
1194  70.9  #aaaaaa
1195  71.0  #aaaaab
1196  71.2  #abaaaa
1197  71.3  #abaaab
1198  71.7  #aaabaa
1199  71.8  #aaabab
1200  71.9  #ababaa
1201  72.1  #ababab
1202  72.2  #ababac
1203  72.4  #acabab
1204  72.5  #acabac
1205  72.8  #abacab
1206  72.9  #abacac
1207  73.1  #acacab
1208  73.2  #acacac
1209  73.4  #acacad
1210  73.5  #adacac
1211  73.7  #adacad
1212  74.1  #acadac
1213  74.2  #acadad
1214  74.3  #adadac
1215  74.5  #adadad
1216  74.7  #adadae
1217  75.1  #aeadad
1218  75.4  #aeadae
1219  76.1  #adaead
1220  76.3  #adaeae
1221  76.7  #aeaead
1222  77.0  #aeaeae
1223  77.1  #aeaeaf
1224  77.3  #afaeae
1225  77.4  #afaeaf
1226  77.7  #aeafae
1227  77.9  #aeafaf
1228  78.1  #afafae
1229  78.2  #afafaf
1230  78.3  #afafb0
1231  78.5  #b0afaf
1232  78.6  #b0afb0
1233  79.0  #afb0af
1234  79.2  #afb0b0
1235  79.3  #b0b0af
1236  79.5  #b0b0b0
1237  79.6  #b0b0b1
1238  79.8  #b1b0b0
1239  79.9  #b1b0b1
1240  80.3  #b0b1b0
1241  80.4  #b0b1b1
1242  80.6  #b1b1b0
1243  80.7  #b1b1b1
1244  80.9  #b1b1b2
1245  81.0  #b2b1b1
1246  81.2  #b2b1b2
1247  81.6  #b1b2b1
1248  81.7  #b1b2b2
1249  81.9  #b2b2b1
1250  82.0  #b2b2b2
1251  82.2  #b2b2b3
1252  82.4  #b3b2b2
1253  82.5  #b3b2b3
1254  82.9  #b2b3b2
1255  83.0  #b2b3b3
1256  83.2  #b3b3b2
1257  83.3  #b3b3b3
1258  83.6  #b3b3b4
1259  84.0  #b4b3b3
1260  84.3  #b4b3b4
1261  85.1  #b3b4b3
1262  85.4  #b3b4b4
1263  85.7  #b4b4b3
1264  86.1  #b4b4b4
1265  86.2  #b4b4b5
1266  86.4  #b5b4b4
1267  86.5  #b5b4b5
1268  86.9  #b4b5b4
1269  87.1  #b4b5b5
1270  87.3  #b5b5b4
1271  87.4  #b5b5b5
1272  87.6  #b5b5b6
1273  87.7  #b6b5b5
1274  87.8  #b6b5b6
1275  88.2  #b5b6b5
1276  88.4  #b5b6b6
1277  88.6  #b6b6b5
1278  88.7  #b6b6b6
1279  88.9  #b6b6b7
1280  89.0  #b7b6b6
1281  89.2  #b7b6b7
1282  89.6  #b6b7b6
1283  89.8  #b6b7b7
1284  90.0  #b7b7b6
1285  90.1  #b7b7b7
1286  90.3  #b7b7b8
1287  90.4  #b8b7b7
1288  90.6  #b8b7b8
1289  91.0  #b7b8b7
1290  91.1  #b7b8b8
1291  91.3  #b8b8b7
1292  91.4  #b8b8b8
1293  91.6  #b8b8b9
1294  91.8  #b9b8b8
1295  91.9  #b9b8b9
1296  92.3  #b8b9b8
1297  92.5  #b8b9b9
1298  92.7  #b9b9b8
1299  92.8  #b9b9b9
1300  93.2  #b9b9ba
1301  93.5  #bab9b9
1302  93.8  #bab9ba
1303  94.7  #b9bab9
1304  95.0  #b9baba
1305  95.3  #babab9
1306  95.6  #bababa
1307  95.8  #bababb
1308  95.9  #bbbaba
1309  96.1  #bbbabb
1310  96.5  #babbba
1311  96.7  #babbbb
1312  96.8  #bbbbba
1313  97.0  #bbbbbb
1314  97.2  #bbbbbc
1315  97.4  #bcbbbb
1316  97.5  #bcbbbc
1317  98.0  #bbbcbb
1318  98.1  #bbbcbc
1319  98.3  #bcbcbb
1320  98.5  #bcbcbc
1321  98.6  #bcbcbd
1322  98.8  #bdbcbc
1323  99.0  #bdbcbd
1324  99.4  #bcbdbc
1325  99.6  #bcbdbd
1326  99.7  #bdbdbc
1327  99.9  #bdbdbd
1328  100.0  #bdbdbe
1329  100.3  #bebdbd
1330  100.4  #bebdbe
1331  100.9  #bdbebd
1332  101.0  #bdbebe
1333  101.2  #bebebd
1334  101.4  #bebebe
1335  101.7  #bebebf
1336  102.1  #bfbebe
1337  102.4  #bfbebf
1338  103.3  #bebfbe
1339  103.7  #bebfbf
1340  104.1  #bfbfbe
1341  104.4  #bfbfbf
1342  104.5  #bfbfc0
1343  104.7  #c0bfbf
1344  104.9  #c0bfc0
1345  105.4  #bfc0bf
1346  105.5  #bfc0c0
1347  105.7  #c0c0bf
1348  105.9  #c0c0c0
1349  106.0  #c0c0c1
1350  106.3  #c1c0c0
1351  106.4  #c1c0c1
1352  106.9  #c0c1c0
1353  107.0  #c0c1c1
1354  107.2  #c1c1c0
1355  107.4  #c1c1c1
1356  107.6  #c1c1c2
1357  107.8  #c2c1c1
1358  108.0  #c2c1c2
1359  108.4  #c1c2c1
1360  108.5  #c1c2c2
1361  108.7  #c2c2c1
1362  108.9  #c2c2c2
1363  109.1  #c2c2c3
1364  109.3  #c3c2c2
1365  109.4  #c3c2c3
1366  109.9  #c2c3c2
1367  110.0  #c2c3c3
1368  110.1  #c3c3c2
1369  110.8  #c3c3c3
1370  111.1  #c3c3c4
1371  111.6  #c4c3c3
1372  111.9  #c4c3c4
1373  112.8  #c3c4c3
1374  113.2  #c3c4c4
1375  113.6  #c4c4c3
1376  113.9  #c4c4c4
1377  114.1  #c4c4c5
1378  114.3  #c5c4c4
1379  114.5  #c5c4c5
1380  115.0  #c4c5c4
1381  115.1  #c4c5c5
1382  115.3  #c5c5c4
1383  115.5  #c5c5c5
1384  115.7  #c5c5c6
1385  115.9  #c6c5c5
1386  116.0  #c6c5c6
1387  116.5  #c5c6c5
1388  116.7  #c5c6c6
1389  116.9  #c6c6c5
1390  117.1  #c6c6c6
1391  117.3  #c6c6c7
1392  117.5  #c7c6c6
1393  117.7  #c7c6c7
1394  118.1  #c6c7c6
1395  118.3  #c6c7c7
1396  118.5  #c7c7c6
1397  118.7  #c7c7c7
1398  118.8  #c7c7c8
1399  119.1  #c8c7c7
1400  119.2  #c8c7c8
1401  119.7  #c7c8c7
1402  119.9  #c7c8c8
1403  120.1  #c8c8c7
1404  120.3  #c8c8c8
1405  120.6  #c8c8c9
1406  121.2  #c9c8c8
1407  121.5  #c9c8c9
1408  122.5  #c8c9c8
1409  122.9  #c8c9c9
1410  123.3  #c9c9c8
1411  123.7  #c9c9c9
1412  123.9  #c9c9ca
1413  124.1  #cac9c9
1414  124.2  #cac9ca
1415  124.8  #c9cac9
1416  124.9  #c9caca
1417  125.2  #cacac9
1418  125.4  #cacaca
1419  125.5  #cacacb
1420  125.8  #cbcaca
1421  125.9  #cbcacb
1422  126.5  #cacbca
1423  126.7  #cacbcb
1424  126.9  #cbcbca
1425  127.1  #cbcbcb
1426  127.3  #cbcbcc
1427  127.5  #cccbcb
1428  127.7  #cccbcc
1429  128.2  #cbcccb
1430  128.4  #cbcccc
1431  128.6  #cccccb
1432  128.8  #cccccc
1433  129.1  #cccccd
1434  129.5  #cdcccc
1435  129.9  #cdcccd
1436  131.0  #cccdcc
1437  131.4  #cccdcd
1438  131.7  #cdcdcc
1439  132.1  #cdcdcd
1440  132.3  #cdcdce
1441  132.5  #cecdcd
1442  132.7  #cecdce
1443  133.1  #cdcecd
1444  133.3  #cdcece
1445  133.5  #cececd
1446  133.8  #cecece
1447  133.9  #cececf
1448  134.1  #cfcece
1449  134.3  #cfcecf
1450  134.7  #cecfce
1451  134.9  #cecfcf
1452  135.1  #cfcfce
1453  135.3  #cfcfcf
1454  135.5  #cfcfd0
1455  135.7  #d0cfcf
1456  136.0  #d0cfd0
1457  136.4  #cfd0cf
1458  136.6  #cfd0d0
1459  136.8  #d0d0cf
1460  137.0  #d0d0d0
1461  137.4  #d0d0d1
1462  137.8  #d1d0d0
1463  138.2  #d1d0d1
1464  139.1  #d0d1d0
1465  139.5  #d0d1d1
1466  140.0  #d1d1d0
1467  140.3  #d1d1d1
1468  140.4  #d1d1d2
1469  140.7  #d2d1d1
1470  140.9  #d2d1d2
1471  141.4  #d1d2d1
1472  141.6  #d1d2d2
1473  141.8  #d2d2d1
1474  142.0  #d2d2d2
1475  142.1  #d2d2d3
1476  142.4  #d3d2d2
1477  142.5  #d3d2d3
1478  143.0  #d2d3d2
1479  143.2  #d2d3d3
1480  143.4  #d3d3d2
1481  143.6  #d3d3d3
1482  143.8  #d3d3d4
1483  144.1  #d4d3d3
1484  144.2  #d4d3d4
1485  144.8  #d3d4d3
1486  144.9  #d3d4d4
1487  145.1  #d4d4d3
1488  145.3  #d4d4d4
1489  145.5  #d4d4d5
1490  145.6  #d5d4d4
1491  145.8  #d5d4d5
1492  146.4  #d4d5d4
1493  146.7  #d4d5d5
1494  146.8  #d5d5d4
1495  146.9  #d5d5d5
1496  147.3  #d5d5d6
1497  147.8  #d6d5d5
1498  148.2  #d6d5d6
1499  149.2  #d5d6d5
1500  149.6  #d5d6d6
1501  150.0  #d6d6d5
1502  150.4  #d6d6d6
1503  150.6  #d6d6d7
1504  150.8  #d7d6d6
1505  151.0  #d7d6d7
1506  151.6  #d6d7d6
1507  151.8  #d6d7d7
1508  151.9  #d7d7d6
1509  152.2  #d7d7d7
1510  152.4  #d7d7d8
1511  152.6  #d8d7d7
1512  152.8  #d8d7d8
1513  153.3  #d7d8d7
1514  153.5  #d7d8d8
1515  153.8  #d8d8d7
1516  154.0  #d8d8d8
1517  154.1  #d8d8d9
1518  154.4  #d9d8d8
1519  154.6  #d9d8d9
1520  155.0  #d8d9d8
1521  155.3  #d8d9d9
1522  155.5  #d9d9d8
1523  155.7  #d9d9d9
1524  156.1  #d9d9da
1525  156.6  #dad9d9
1526  156.9  #dad9da
1527  157.9  #d9dad9
1528  158.3  #d9dada
1529  158.0  #dadad9
1530  159.0  #dadada
1531  159.0  #dadadb
1532  159.0  #dbdada
1533  159.0  #dbdadb
1534  160.0  #dadbda
1535  160.0  #dadbdb
1536  160.0  #dbdbda
1537  161.0  #dbdbdb
1538  161.0  #dbdbdc
1539  161.0  #dcdbdb
1540  161.0  #dcdbdc
1541  162.0  #dbdcdb
1542  162.0  #dbdcdc
1543  162.0  #dcdcdb
1544  162.0  #dcdcdc
1545  162.0  #dcdcdd
1546  163.0  #dddcdc
1547  163.0  #dddcdd
1548  163.0  #dcdddc
1549  164.0  #dcdddd
1550  164.0  #dddddc
1551  164.0  #dddddd
1552  164.0  #ddddde
1553  165.0  #dedddd
1554  165.0  #deddde
1555  166.0  #dddedd
1556  167.0  #dddede
1557  167.0  #dededd
1558  168.0  #dedede
1559  168.0  #dededf
1560  168.0  #dfdede
1561  168.0  #dfdedf
1562  169.0  #dedfde
1563  169.0  #dedfdf
1564  169.0  #dfdfde
1565  169.0  #dfdfdf
1566  170.0  #dfdfe0
1567  170.0  #e0dfdf
1568  170.0  #e0dfe0
1569  171.0  #dfe0df
1570  171.0  #dfe0e0
1571  171.0  #e0e0df
1572  171.0  #e0e0e0
1573  172.0  #e0e0e1
1574  172.0  #e1e0e0
1575  172.0  #e1e0e1
1576  173.0  #e0e1e0
1577  173.0  #e0e1e1
1578  174.0  #e1e1e0
1579  174.0  #e1e1e1
1580  174.0  #e1e1e2
1581  175.0  #e2e1e1
1582  175.0  #e2e1e2
1583  176.0  #e1e2e1
1584  177.0  #e1e2e2
1585  177.0  #e2e2e1
1586  177.0  #e2e2e2
1587  178.0  #e2e2e3
1588  178.0  #e3e2e2
1589  178.0  #e3e2e3
1590  179.0  #e2e3e2
1591  179.0  #e2e3e3
1592  179.0  #e3e3e2
1593  179.0  #e3e3e3
1594  180.0  #e3e3e4
1595  180.0  #e4e3e3
1596  180.0  #e4e3e4
1597  181.0  #e3e4e3
1598  181.0  #e3e4e4
1599  181.0  #e4e4e3
1600  181.0  #e4e4e4
1601  182.0  #e4e4e5
1602  182.0  #e5e4e4
1603  182.0  #e5e4e5
1604  183.0  #e4e5e4
1605  183.0  #e4e5e5
1606  183.0  #e5e5e4
1607  183.0  #e5e5e5
1608  184.0  #e5e5e6
1609  184.0  #e6e5e5
1610  185.0  #e6e5e6
1611  186.0  #e5e6e5
1612  187.0  #e5e6e6
1613  187.0  #e6e6e5
1614  187.0  #e6e6e6
1615  187.0  #e6e6e7
1616  188.0  #e7e6e6
1617  188.0  #e7e6e7
1618  188.0  #e6e7e6
1619  189.0  #e6e7e7
1620  189.0  #e7e7e6
1621  189.0  #e7e7e7
1622  189.0  #e7e7e8
1623  189.0  #e8e7e7
1624  190.0  #e8e7e8
1625  190.0  #e7e8e7
1626  190.0  #e7e8e8
1627  190.0  #e8e8e7
1628  191.0  #e8e8e8
1629  191.0  #e8e8e9
1630  191.0  #e9e8e8
1631  192.0  #e9e8e9
1632  193.0  #e8e9e8
1633  193.0  #e8e9e9
1634  193.0  #e9e9e8
1635  194.0  #e9e9e9
1636  194.0  #e9e9ea
1637  194.0  #eae9e9
1638  194.0  #eae9ea
1639  195.0  #e9eae9
1640  195.0  #e9eaea
1641  195.0  #eaeae9
1642  196.0  #eaeaea
1643  196.0  #eaeaeb
1644  196.0  #ebeaea
1645  196.0  #ebeaeb
1646  197.0  #eaebea
1647  197.0  #eaebeb
1648  197.0  #ebebea
1649  197.0  #ebebeb
1650  197.0  #ebebec
1651  198.0  #ecebeb
1652  198.0  #ecebec
1653  198.0  #ebeceb
1654  199.0  #ebecec
1655  199.0  #ececeb
1656  199.0  #ececec
1657  199.0  #ececed
1658  200.0  #edecec
1659  200.0  #edeced
1660  201.0  #ecedec
1661  202.0  #eceded
1662  202.0  #ededec
1663  203.0  #ededed
1664  203.0  #ededee
1665  203.0  #eeeded
1666  203.0  #eeedee
1667  204.0  #edeeed
1668  204.0  #edeeee
1669  204.0  #eeeeed
1670  204.0  #eeeeee
1671  204.0  #eeeeef
1672  205.0  #efeeee
1673  205.0  #efeeef
1674  205.0  #eeefee
1675  206.0  #eeefef
1676  206.0  #efefee
1677  206.0  #efefef
1678  206.0  #efeff0
1679  207.0  #f0efef
1680  207.0  #f0eff0
1681  208.0  #eff0ef
1682  209.0  #eff0f0
1683  209.0  #f0f0ef
1684  210.0  #f0f0f0
1685  210.0  #f0f0f1
1686  210.0  #f1f0f0
1687  210.0  #f1f0f1
1688  211.0  #f0f1f0
1689  211.0  #f0f1f1
1690  211.0  #f1f1f0
1691  211.0  #f1f1f1
1692  212.0  #f1f1f2
1693  212.0  #f2f1f1
1694  212.0  #f2f1f2
1695  213.0  #f1f2f1
1696  213.0  #f1f2f2
1697  213.0  #f2f2f1
1698  213.0  #f2f2f2
1699  213.0  #f2f2f3
1700  214.0  #f3f2f2
1701  214.0  #f3f2f3
1702  214.0  #f2f3f2
1703  215.0  #f2f3f3
1704  215.0  #f3f3f2
1705  215.0  #f3f3f3
1706  216.0  #f3f3f4
1707  216.0  #f4f3f3
1708  217.0  #f4f3f4
1709  218.0  #f3f4f3
1710  218.0  #f3f4f4
1711  219.0  #f4f4f3
1712  219.0  #f4f4f4
1713  219.0  #f4f4f5
1714  219.0  #f5f4f4
1715  220.0  #f5f4f5
1716  220.0  #f4f5f4
1717  221.0  #f4f5f5
1718  221.0  #f5f5f4
1719  221.0  #f5f5f5
1720  221.0  #f5f5f6
1721  222.0  #f6f5f5
1722  222.0  #f6f5f6
1723  222.0  #f5f6f5
1724  223.0  #f5f6f6
1725  223.0  #f6f6f5
1726  223.0  #f6f6f6
1727  224.0  #f6f6f7
1728  224.0  #f7f6f6
1729  225.0  #f7f6f7
1730  226.0  #f6f7f6
1731  227.0  #f6f7f7
1732  227.0  #f7f7f6
1733  227.0  #f7f7f7
1734  228.0  #f7f7f8
1735  228.0  #f8f7f7
1736  228.0  #f8f7f8
1737  229.0  #f7f8f7
1738  229.0  #f7f8f8
1739  230.0  #f8f8f7
1740  230.0  #f8f8f8
1741  230.0  #f8f8f9
1742  230.0  #f9f8f8
1743  231.0  #f9f8f9
1744  232.0  #f8f9f8
1745  232.0  #f8f9f9
1746  232.0  #f9f9f8
1747  232.0  #f9f9f9
1748  232.0  #f9f9fa
1749  233.0  #faf9f9
1750  233.0  #faf9fa
1751  234.0  #f9faf9
1752  234.0  #f9fafa
1753  234.0  #fafaf9
1754  235.0  #fafafa
1755  235.0  #fafafb
1756  236.0  #fbfafa
1757  237.0  #fbfafb
1758  239.0  #fafbfa
1759  240.0  #fafbfb
1760  240.0  #fbfbfa
1761  241.0  #fbfbfb
1762  241.0  #fbfbfc
1763  241.0  #fcfbfb
1764  242.0  #fcfbfc
1765  243.0  #fbfcfb
1766  243.0  #fbfcfc
1767  243.0  #fcfcfb
1768  244.0  #fcfcfc
1769  244.0  #fcfcfd
1770  244.0  #fdfcfc
1771  245.0  #fdfcfd
1772  246.0  #fcfdfc
1773  246.0  #fcfdfd
1774  246.0  #fdfdfc
1775  247.0  #fdfdfd
1776  247.0  #fdfdfe
1777  248.0  #fefdfd
1778  248.0  #fefdfe
1779  251.0  #fdfefd
1780  251.0  #fdfefe
1781  252.0  #fefefd
1782  253.0  #fefefe
1783  253.0  #fefeff
1784  253.0  #fffefe
1785  253.0  #fffeff
1786  255.0  #fefffe
1787  255.0  #feffff
1788  256.0  #fffffe
1789  256.0  #ffffff
